BEHD @ YYE. Sim. done on 2023- 9-22    8h43
### Here is the simulation with: κ =      0.000 ; and ∆_0 =      1.800
#  Time        Position ∆            Position X            Angle Θ
 
 
#    1
    0.00005,        1.80000000E+00,
    0.00010,        1.80000000E+00,
    0.00015,        1.80034105E+00,
    0.00020,        1.80102314E+00,
    0.00025,        1.80204569E+00,
    0.00030,        1.80340754E+00,
    0.00035,        1.80510695E+00,
    0.00040,        1.80714160E+00,
    0.00045,        1.80950858E+00,
    0.00050,        1.81220443E+00,
    0.00055,        1.81522511E+00,
    0.00060,        1.81856603E+00,
    0.00065,        1.82222202E+00,
    0.00070,        1.82618740E+00,
    0.00075,        1.83045594E+00,
    0.00080,        1.83502086E+00,
    0.00085,        1.83987490E+00,
    0.00090,        1.84501026E+00,
    0.00095,        1.85041867E+00,
    0.00100,        1.85609137E+00,
    0.00105,        1.86201914E+00,
    0.00110,        1.86819231E+00,
    0.00115,        1.87460076E+00,
    0.00120,        1.88123398E+00,
    0.00125,        1.88808103E+00,
    0.00130,        1.89513061E+00,
    0.00135,        1.90237103E+00,
    0.00140,        1.90979027E+00,
    0.00145,        1.91737600E+00,
    0.00150,        1.92511555E+00,
    0.00155,        1.93299599E+00,
    0.00160,        1.94100413E+00,
    0.00165,        1.94912652E+00,
    0.00170,        1.95734952E+00,
    0.00175,        1.96565926E+00,
    0.00180,        1.97404173E+00,
    0.00185,        1.98248276E+00,
    0.00190,        1.99096806E+00,
    0.00195,        1.99948322E+00,
    0.00200,        2.00801378E+00,
    0.00205,        2.01654523E+00,
    0.00210,        2.02506300E+00,
    0.00215,        2.03355257E+00,
    0.00220,        2.04199939E+00,
    0.00225,        2.05038900E+00,
    0.00230,        2.05870698E+00,
    0.00235,        2.06693905E+00,
    0.00240,        2.07507100E+00,
    0.00245,        2.08308880E+00,
    0.00250,        2.09097859E+00,
    0.00255,        2.09872669E+00,
    0.00260,        2.10631965E+00,
    0.00265,        2.11374426E+00,
    0.00270,        2.12098757E+00,
    0.00275,        2.12803691E+00,
    0.00280,        2.13487995E+00,
    0.00285,        2.14150465E+00,
    0.00290,        2.14789934E+00,
    0.00295,        2.15405274E+00,
    0.00300,        2.15995393E+00,
    0.00305,        2.16559243E+00,
    0.00310,        2.17095817E+00,
    0.00315,        2.17604153E+00,
    0.00320,        2.18083337E+00,
    0.00325,        2.18532501E+00,
    0.00330,        2.18950829E+00,
    0.00335,        2.19337555E+00,
    0.00340,        2.19691965E+00,
    0.00345,        2.20013400E+00,
    0.00350,        2.20301256E+00,
    0.00355,        2.20554984E+00,
    0.00360,        2.20774093E+00,
    0.00365,        2.20958151E+00,
    0.00370,        2.21106785E+00,
    0.00375,        2.21219680E+00,
    0.00380,        2.21296583E+00,
    0.00385,        2.21337301E+00,
    0.00390,        2.21341704E+00,
    0.00395,        2.21309721E+00,
    0.00400,        2.21241346E+00,
    0.00405,        2.21136633E+00,
    0.00410,        2.20995698E+00,
    0.00415,        2.20818720E+00,
    0.00420,        2.20605939E+00,
    0.00425,        2.20357658E+00,
    0.00430,        2.20074239E+00,
    0.00435,        2.19756105E+00,
    0.00440,        2.19403739E+00,
    0.00445,        2.19017685E+00,
    0.00450,        2.18598543E+00,
    0.00455,        2.18146971E+00,
    0.00460,        2.17663684E+00,
    0.00465,        2.17149453E+00,
    0.00470,        2.16605100E+00,
    0.00475,        2.16031504E+00,
    0.00480,        2.15429592E+00,
    0.00485,        2.14800342E+00,
    0.00490,        2.14144782E+00,
    0.00495,        2.13463983E+00,
    0.00500,        2.12759064E+00,
    0.00505,        2.12031185E+00,
    0.00510,        2.11281550E+00,
    0.00515,        2.10511398E+00,
    0.00520,        2.09722008E+00,
    0.00525,        2.08914694E+00,
    0.00530,        2.08090802E+00,
    0.00535,        2.07251708E+00,
    0.00540,        2.06398817E+00,
    0.00545,        2.05533560E+00,
    0.00550,        2.04657391E+00,
    0.00555,        2.03771787E+00,
    0.00560,        2.02878240E+00,
    0.00565,        2.01978261E+00,
    0.00570,        2.01073375E+00,
    0.00575,        2.00165114E+00,
    0.00580,        1.99255024E+00,
    0.00585,        1.98344651E+00,
    0.00590,        1.97435549E+00,
    0.00595,        1.96529270E+00,
    0.00600,        1.95627363E+00,
    0.00605,        1.94731375E+00,
    0.00610,        1.93842843E+00,
    0.00615,        1.92963295E+00,
    0.00620,        1.92094246E+00,
    0.00625,        1.91237196E+00,
    0.00630,        1.90393628E+00,
    0.00635,        1.89565001E+00,
    0.00640,        1.88752756E+00,
    0.00645,        1.87958305E+00,
    0.00650,        1.87183033E+00,
    0.00655,        1.86428295E+00,
    0.00660,        1.85695412E+00,
    0.00665,        1.84985672E+00,
    0.00670,        1.84300325E+00,
    0.00675,        1.83640580E+00,
    0.00680,        1.83007607E+00,
    0.00685,        1.82402531E+00,
    0.00690,        1.81826430E+00,
    0.00695,        1.81280337E+00,
    0.00700,        1.80765234E+00,
    0.00705,        1.80282052E+00,
    0.00710,        1.79831670E+00,
    0.00715,        1.79414911E+00,
    0.00720,        1.79032544E+00,
    0.00725,        1.78685279E+00,
    0.00730,        1.78373769E+00,
    0.00735,        1.78098604E+00,
    0.00740,        1.77860318E+00,
    0.00745,        1.77659378E+00,
    0.00750,        1.77496191E+00,
    0.00755,        1.77371101E+00,
    0.00760,        1.77284384E+00,
    0.00765,        1.77236255E+00,
    0.00770,        1.77226861E+00,
    0.00775,        1.77256284E+00,
    0.00780,        1.77324541E+00,
    0.00785,        1.77431581E+00,
    0.00790,        1.77577287E+00,
    0.00795,        1.77761478E+00,
    0.00800,        1.77983905E+00,
    0.00805,        1.78244253E+00,
    0.00810,        1.78542144E+00,
    0.00815,        1.78877133E+00,
    0.00820,        1.79248713E+00,
    0.00825,        1.79656312E+00,
    0.00830,        1.80099297E+00,
    0.00835,        1.80576972E+00,
    0.00840,        1.81088583E+00,
    0.00845,        1.81633314E+00,
    0.00850,        1.82210293E+00,
    0.00855,        1.82818592E+00,
    0.00860,        1.83457226E+00,
    0.00865,        1.84125158E+00,
    0.00870,        1.84821300E+00,
    0.00875,        1.85544512E+00,
    0.00880,        1.86293606E+00,
    0.00885,        1.87067351E+00,
    0.00890,        1.87864468E+00,
    0.00895,        1.88683638E+00,
    0.00900,        1.89523502E+00,
    0.00905,        1.90382662E+00,
    0.00910,        1.91259688E+00,
    0.00915,        1.92153113E+00,
    0.00920,        1.93061442E+00,
    0.00925,        1.93983152E+00,
    0.00930,        1.94916694E+00,
    0.00935,        1.95860495E+00,
    0.00940,        1.96812965E+00,
    0.00945,        1.97772493E+00,
    0.00950,        1.98737456E+00,
    0.00955,        1.99706218E+00,
    0.00960,        2.00677132E+00,
    0.00965,        2.01648547E+00,
    0.00970,        2.02618807E+00,
    0.00975,        2.03586256E+00,
    0.00980,        2.04549239E+00,
    0.00985,        2.05506106E+00,
    0.00990,        2.06455216E+00,
    0.00995,        2.07394937E+00,
    0.01000,        2.08323650E+00,
    0.01005,        2.09239752E+00,
    0.01010,        2.10141661E+00,
    0.01015,        2.11027814E+00,
    0.01020,        2.11896673E+00,
    0.01025,        2.12746726E+00,
    0.01030,        2.13576493E+00,
    0.01035,        2.14384524E+00,
    0.01040,        2.15169404E+00,
    0.01045,        2.15929754E+00,
    0.01050,        2.16664237E+00,
    0.01055,        2.17371556E+00,
    0.01060,        2.18050459E+00,
    0.01065,        2.18699739E+00,
    0.01070,        2.19318238E+00,
    0.01075,        2.19904850E+00,
    0.01080,        2.20458520E+00,
    0.01085,        2.20978247E+00,
    0.01090,        2.21463088E+00,
    0.01095,        2.21912156E+00,
    0.01100,        2.22324624E+00,
    0.01105,        2.22699727E+00,
    0.01110,        2.23036761E+00,
    0.01115,        2.23335086E+00,
    0.01120,        2.23594129E+00,
    0.01125,        2.23813380E+00,
    0.01130,        2.23992397E+00,
    0.01135,        2.24130806E+00,
    0.01140,        2.24228303E+00,
    0.01145,        2.24284651E+00,
    0.01150,        2.24299685E+00,
    0.01155,        2.24273307E+00,
    0.01160,        2.24205492E+00,
    0.01165,        2.24096286E+00,
    0.01170,        2.23945803E+00,
    0.01175,        2.23754231E+00,
    0.01180,        2.23521826E+00,
    0.01185,        2.23248914E+00,
    0.01190,        2.22935891E+00,
    0.01195,        2.22583224E+00,
    0.01200,        2.22191446E+00,
    0.01205,        2.21761157E+00,
    0.01210,        2.21293028E+00,
    0.01215,        2.20787790E+00,
    0.01220,        2.20246243E+00,
    0.01225,        2.19669247E+00,
    0.01230,        2.19057727E+00,
    0.01235,        2.18412666E+00,
    0.01240,        2.17735107E+00,
    0.01245,        2.17026150E+00,
    0.01250,        2.16286951E+00,
    0.01255,        2.15518718E+00,
    0.01260,        2.14722712E+00,
    0.01265,        2.13900243E+00,
    0.01270,        2.13052667E+00,
    0.01275,        2.12181389E+00,
    0.01280,        2.11287853E+00,
    0.01285,        2.10373545E+00,
    0.01290,        2.09439988E+00,
    0.01295,        2.08488741E+00,
    0.01300,        2.07521397E+00,
    0.01305,        2.06539578E+00,
    0.01310,        2.05544933E+00,
    0.01315,        2.04539136E+00,
    0.01320,        2.03523884E+00,
    0.01325,        2.02500892E+00,
    0.01330,        2.01471890E+00,
    0.01335,        2.00438623E+00,
    0.01340,        1.99402847E+00,
    0.01345,        1.98366322E+00,
    0.01350,        1.97330816E+00,
    0.01355,        1.96298095E+00,
    0.01360,        1.95269926E+00,
    0.01365,        1.94248069E+00,
    0.01370,        1.93234278E+00,
    0.01375,        1.92230295E+00,
    0.01380,        1.91237850E+00,
    0.01385,        1.90258653E+00,
    0.01390,        1.89294398E+00,
    0.01395,        1.88346753E+00,
    0.01400,        1.87417365E+00,
    0.01405,        1.86507847E+00,
    0.01410,        1.85619786E+00,
    0.01415,        1.84754732E+00,
    0.01420,        1.83914199E+00,
    0.01425,        1.83099663E+00,
    0.01430,        1.82312557E+00,
    0.01435,        1.81554270E+00,
    0.01440,        1.80826144E+00,
    0.01445,        1.80129471E+00,
    0.01450,        1.79465495E+00,
    0.01455,        1.78835403E+00,
    0.01460,        1.78240326E+00,
    0.01465,        1.77681340E+00,
    0.01470,        1.77159459E+00,
    0.01475,        1.76675636E+00,
    0.01480,        1.76230762E+00,
    0.01485,        1.75825661E+00,
    0.01490,        1.75461092E+00,
    0.01495,        1.75137745E+00,
    0.01500,        1.74856243E+00,
    0.01505,        1.74617137E+00,
    0.01510,        1.74420907E+00,
    0.01515,        1.74267960E+00,
    0.01520,        1.74158631E+00,
    0.01525,        1.74093181E+00,
    0.01530,        1.74071797E+00,
    0.01535,        1.74094590E+00,
    0.01540,        1.74161596E+00,
    0.01545,        1.74272777E+00,
    0.01550,        1.74428018E+00,
    0.01555,        1.74627130E+00,
    0.01560,        1.74869848E+00,
    0.01565,        1.75155832E+00,
    0.01570,        1.75484669E+00,
    0.01575,        1.75855871E+00,
    0.01580,        1.76268877E+00,
    0.01585,        1.76723054E+00,
    0.01590,        1.77217699E+00,
    0.01595,        1.77752036E+00,
    0.01600,        1.78325221E+00,
    0.01605,        1.78936345E+00,
    0.01610,        1.79584429E+00,
    0.01615,        1.80268431E+00,
    0.01620,        1.80987247E+00,
    0.01625,        1.81739709E+00,
    0.01630,        1.82524592E+00,
    0.01635,        1.83340613E+00,
    0.01640,        1.84186434E+00,
    0.01645,        1.85060662E+00,
    0.01650,        1.85961857E+00,
    0.01655,        1.86888526E+00,
    0.01660,        1.87839133E+00,
    0.01665,        1.88812099E+00,
    0.01670,        1.89805801E+00,
    0.01675,        1.90818581E+00,
    0.01680,        1.91848745E+00,
    0.01685,        1.92894565E+00,
    0.01690,        1.93954284E+00,
    0.01695,        1.95026120E+00,
    0.01700,        1.96108265E+00,
    0.01705,        1.97198892E+00,
    0.01710,        1.98296154E+00,
    0.01715,        1.99398194E+00,
    0.01720,        2.00503138E+00,
    0.01725,        2.01609109E+00,
    0.01730,        2.02714221E+00,
    0.01735,        2.03816590E+00,
    0.01740,        2.04914330E+00,
    0.01745,        2.06005562E+00,
    0.01750,        2.07088413E+00,
    0.01755,        2.08161024E+00,
    0.01760,        2.09221547E+00,
    0.01765,        2.10268153E+00,
    0.01770,        2.11299035E+00,
    0.01775,        2.12312407E+00,
    0.01780,        2.13306511E+00,
    0.01785,        2.14279619E+00,
    0.01790,        2.15230037E+00,
    0.01795,        2.16156105E+00,
    0.01800,        2.17056202E+00,
    0.01805,        2.17928748E+00,
    0.01810,        2.18772210E+00,
    0.01815,        2.19585099E+00,
    0.01820,        2.20365977E+00,
    0.01825,        2.21113458E+00,
    0.01830,        2.21826210E+00,
    0.01835,        2.22502959E+00,
    0.01840,        2.23142488E+00,
    0.01845,        2.23743645E+00,
    0.01850,        2.24305338E+00,
    0.01855,        2.24826543E+00,
    0.01860,        2.25306302E+00,
    0.01865,        2.25743725E+00,
    0.01870,        2.26137995E+00,
    0.01875,        2.26488366E+00,
    0.01880,        2.26794166E+00,
    0.01885,        2.27054796E+00,
    0.01890,        2.27269736E+00,
    0.01895,        2.27438542E+00,
    0.01900,        2.27560846E+00,
    0.01905,        2.27636361E+00,
    0.01910,        2.27664878E+00,
    0.01915,        2.27646269E+00,
    0.01920,        2.27580484E+00,
    0.01925,        2.27467556E+00,
    0.01930,        2.27307597E+00,
    0.01935,        2.27100800E+00,
    0.01940,        2.26847436E+00,
    0.01945,        2.26547859E+00,
    0.01950,        2.26202501E+00,
    0.01955,        2.25811873E+00,
    0.01960,        2.25376563E+00,
    0.01965,        2.24897237E+00,
    0.01970,        2.24374639E+00,
    0.01975,        2.23809585E+00,
    0.01980,        2.23202967E+00,
    0.01985,        2.22555747E+00,
    0.01990,        2.21868961E+00,
    0.01995,        2.21143712E+00,
    0.02000,        2.20381172E+00,
    0.02005,        2.19582576E+00,
    0.02010,        2.18749226E+00,
    0.02015,        2.17882482E+00,
    0.02020,        2.16983767E+00,
    0.02025,        2.16054558E+00,
    0.02030,        2.15096387E+00,
    0.02035,        2.14110840E+00,
    0.02040,        2.13099550E+00,
    0.02045,        2.12064197E+00,
    0.02050,        2.11006506E+00,
    0.02055,        2.09928243E+00,
    0.02060,        2.08831212E+00,
    0.02065,        2.07717250E+00,
    0.02070,        2.06588229E+00,
    0.02075,        2.05446048E+00,
    0.02080,        2.04292632E+00,
    0.02085,        2.03129930E+00,
    0.02090,        2.01959908E+00,
    0.02095,        2.00784548E+00,
    0.02100,        1.99605846E+00,
    0.02105,        1.98425806E+00,
    0.02110,        1.97246438E+00,
    0.02115,        1.96069754E+00,
    0.02120,        1.94897766E+00,
    0.02125,        1.93732479E+00,
    0.02130,        1.92575893E+00,
    0.02135,        1.91429994E+00,
    0.02140,        1.90296755E+00,
    0.02145,        1.89178130E+00,
    0.02150,        1.88076051E+00,
    0.02155,        1.86992425E+00,
    0.02160,        1.85929133E+00,
    0.02165,        1.84888021E+00,
    0.02170,        1.83870904E+00,
    0.02175,        1.82879555E+00,
    0.02180,        1.81915711E+00,
    0.02185,        1.80981060E+00,
    0.02190,        1.80077247E+00,
    0.02195,        1.79205866E+00,
    0.02200,        1.78368458E+00,
    0.02205,        1.77566508E+00,
    0.02210,        1.76801446E+00,
    0.02215,        1.76074637E+00,
    0.02220,        1.75387387E+00,
    0.02225,        1.74740935E+00,
    0.02230,        1.74136453E+00,
    0.02235,        1.73575044E+00,
    0.02240,        1.73057738E+00,
    0.02245,        1.72585493E+00,
    0.02250,        1.72159190E+00,
    0.02255,        1.71779635E+00,
    0.02260,        1.71447555E+00,
    0.02265,        1.71163597E+00,
    0.02270,        1.70928328E+00,
    0.02275,        1.70742231E+00,
    0.02280,        1.70605708E+00,
    0.02285,        1.70519076E+00,
    0.02290,        1.70482569E+00,
    0.02295,        1.70496332E+00,
    0.02300,        1.70560430E+00,
    0.02305,        1.70674839E+00,
    0.02310,        1.70839448E+00,
    0.02315,        1.71054063E+00,
    0.02320,        1.71318404E+00,
    0.02325,        1.71632105E+00,
    0.02330,        1.71994714E+00,
    0.02335,        1.72405696E+00,
    0.02340,        1.72864434E+00,
    0.02345,        1.73370227E+00,
    0.02350,        1.73922292E+00,
    0.02355,        1.74519766E+00,
    0.02360,        1.75161709E+00,
    0.02365,        1.75847102E+00,
    0.02370,        1.76574850E+00,
    0.02375,        1.77343784E+00,
    0.02380,        1.78152663E+00,
    0.02385,        1.79000175E+00,
    0.02390,        1.79884943E+00,
    0.02395,        1.80805520E+00,
    0.02400,        1.81760398E+00,
    0.02405,        1.82748007E+00,
    0.02410,        1.83766718E+00,
    0.02415,        1.84814848E+00,
    0.02420,        1.85890659E+00,
    0.02425,        1.86992364E+00,
    0.02430,        1.88118129E+00,
    0.02435,        1.89266075E+00,
    0.02440,        1.90434282E+00,
    0.02445,        1.91620793E+00,
    0.02450,        1.92823615E+00,
    0.02455,        1.94040726E+00,
    0.02460,        1.95270074E+00,
    0.02465,        1.96509584E+00,
    0.02470,        1.97757159E+00,
    0.02475,        1.99010686E+00,
    0.02480,        2.00268038E+00,
    0.02485,        2.01527076E+00,
    0.02490,        2.02785658E+00,
    0.02495,        2.04041635E+00,
    0.02500,        2.05292862E+00,
    0.02505,        2.06537197E+00,
    0.02510,        2.07772506E+00,
    0.02515,        2.08996668E+00,
    0.02520,        2.10207575E+00,
    0.02525,        2.11403141E+00,
    0.02530,        2.12581301E+00,
    0.02535,        2.13740016E+00,
    0.02540,        2.14877276E+00,
    0.02545,        2.15991106E+00,
    0.02550,        2.17079568E+00,
    0.02555,        2.18140760E+00,
    0.02560,        2.19172828E+00,
    0.02565,        2.20173961E+00,
    0.02570,        2.21142400E+00,
    0.02575,        2.22076438E+00,
    0.02580,        2.22974423E+00,
    0.02585,        2.23834762E+00,
    0.02590,        2.24655925E+00,
    0.02595,        2.25436444E+00,
    0.02600,        2.26174918E+00,
    0.02605,        2.26870018E+00,
    0.02610,        2.27520483E+00,
    0.02615,        2.28125128E+00,
    0.02620,        2.28682844E+00,
    0.02625,        2.29192600E+00,
    0.02630,        2.29653446E+00,
    0.02635,        2.30064511E+00,
    0.02640,        2.30425010E+00,
    0.02645,        2.30734242E+00,
    0.02650,        2.30991592E+00,
    0.02655,        2.31196533E+00,
    0.02660,        2.31348626E+00,
    0.02665,        2.31447522E+00,
    0.02670,        2.31492960E+00,
    0.02675,        2.31484774E+00,
    0.02680,        2.31422884E+00,
    0.02685,        2.31307306E+00,
    0.02690,        2.31138144E+00,
    0.02695,        2.30915596E+00,
    0.02700,        2.30639950E+00,
    0.02705,        2.30311585E+00,
    0.02710,        2.29930973E+00,
    0.02715,        2.29498671E+00,
    0.02720,        2.29015331E+00,
    0.02725,        2.28481688E+00,
    0.02730,        2.27898568E+00,
    0.02735,        2.27266879E+00,
    0.02740,        2.26587617E+00,
    0.02745,        2.25861858E+00,
    0.02750,        2.25090761E+00,
