BEHD @ YYE. Sim. done on 2023-10-24   16h15
### Sim. w/ κ =    0.500 ; and ∆_0 =  2.00; T =    2.98E+05
 ## r =  1.00E-06 ; rhosty =  1.05E+03 ; rhosol =  1.00E+03
 ## k =  2.00 ; ∆_eq =  2.00 ; num_particle = 1000000
# Indexx..   Velocity            Particle Number
 
 
#     1
    0.010000,      1.13403E+03,
    0.030000,      1.93389E+03,
    0.050000,      3.43319E+03,
    0.070000,      5.42942E+03,
    0.090000,      7.38008E+03,
    0.110000,      8.56357E+03,
    0.130000,      8.36640E+03,
    0.150000,      6.99318E+03,
    0.170000,      4.99669E+03,
    0.190000,      3.03295E+03,
    0.210000,      1.55543E+03,
    0.230000,      6.90280E+02,
    0.250000,      2.57186E+02,
    0.270000,      8.49528E+01,
    0.290000,      2.13158E+01,
    0.310000,      5.07026E+00,
    0.330000,      8.79535E-01,
    0.350000,      1.55212E-01,
    0.370000,      0.00000E+00,
    0.390000,      0.00000E+00,
    0.410000,      0.00000E+00,
    0.430000,      0.00000E+00,
    0.450000,      0.00000E+00,
    0.470000,      0.00000E+00,
    0.490000,      0.00000E+00,
    0.510000,      0.00000E+00,
    0.530000,      0.00000E+00,
    0.550000,      0.00000E+00,
    0.570000,      0.00000E+00,
    0.590000,      0.00000E+00,
    0.610000,      0.00000E+00,
    0.630000,      0.00000E+00,
    0.650000,      0.00000E+00,
    0.670000,      0.00000E+00,
    0.690000,      0.00000E+00,
    0.710000,      0.00000E+00,
    0.730000,      0.00000E+00,
    0.750000,      0.00000E+00,
    0.770000,      0.00000E+00,
    0.790000,      0.00000E+00,
    0.810000,      0.00000E+00,
    0.830000,      0.00000E+00,
    0.850000,      0.00000E+00,
    0.870000,      0.00000E+00,
    0.890000,      0.00000E+00,
    0.910000,      0.00000E+00,
    0.930000,      0.00000E+00,
    0.950000,      0.00000E+00,
    0.970000,      0.00000E+00,
    0.990000,      0.00000E+00,
    1.010000,      0.00000E+00,
    1.030000,      0.00000E+00,
    1.050000,      0.00000E+00,
    1.070000,      0.00000E+00,
    1.090000,      0.00000E+00,
    1.110000,      0.00000E+00,
    1.130000,      0.00000E+00,
    1.150000,      0.00000E+00,
    1.170000,      0.00000E+00,
    1.190000,      0.00000E+00,
 
 
#     2
    0.010000,      5.42725E+01,
    0.030000,      9.33342E+01,
    0.050000,      2.03793E+02,
    0.070000,      4.17676E+02,
    0.090000,      8.00946E+02,
    0.110000,      1.38170E+03,
    0.130000,      2.24100E+03,
    0.150000,      3.27580E+03,
    0.170000,      4.39266E+03,
    0.190000,      5.34499E+03,
    0.210000,      6.09414E+03,
    0.230000,      6.32086E+03,
    0.250000,      5.99258E+03,
    0.270000,      5.24932E+03,
    0.290000,      4.19290E+03,
    0.310000,      3.08551E+03,
    0.330000,      2.06691E+03,
    0.350000,      1.27476E+03,
    0.370000,      7.19822E+02,
    0.390000,      3.75251E+02,
    0.410000,      1.71199E+02,
    0.430000,      8.20037E+01,
    0.450000,      3.06803E+01,
    0.470000,      1.10201E+01,
    0.490000,      4.08725E+00,
    0.510000,      1.08648E+00,
    0.530000,      3.10424E-01,
    0.550000,      0.00000E+00,
    0.570000,      0.00000E+00,
    0.590000,      5.17374E-02,
    0.610000,      0.00000E+00,
    0.630000,      0.00000E+00,
    0.650000,      0.00000E+00,
    0.670000,      0.00000E+00,
    0.690000,      0.00000E+00,
    0.710000,      0.00000E+00,
    0.730000,      0.00000E+00,
    0.750000,      0.00000E+00,
    0.770000,      0.00000E+00,
    0.790000,      0.00000E+00,
    0.810000,      0.00000E+00,
    0.830000,      0.00000E+00,
    0.850000,      0.00000E+00,
    0.870000,      0.00000E+00,
    0.890000,      0.00000E+00,
    0.910000,      0.00000E+00,
    0.930000,      0.00000E+00,
    0.950000,      0.00000E+00,
    0.970000,      0.00000E+00,
    0.990000,      0.00000E+00,
    1.010000,      0.00000E+00,
    1.030000,      0.00000E+00,
    1.050000,      0.00000E+00,
    1.070000,      0.00000E+00,
    1.090000,      0.00000E+00,
    1.110000,      0.00000E+00,
    1.130000,      0.00000E+00,
    1.150000,      0.00000E+00,
    1.170000,      0.00000E+00,
    1.190000,      0.00000E+00,
 
 
#     3
    0.010000,      2.89729E+00,
    0.030000,      5.17374E+00,
    0.050000,      1.34000E+01,
    0.070000,      2.75760E+01,
    0.090000,      6.33265E+01,
    0.110000,      1.29550E+02,
    0.130000,      2.51081E+02,
    0.150000,      4.43286E+02,
    0.170000,      7.50968E+02,
    0.190000,      1.20057E+03,
    0.210000,      1.78447E+03,
    0.230000,      2.51009E+03,
    0.250000,      3.32832E+03,
    0.270000,      4.07401E+03,
    0.290000,      4.76092E+03,
    0.310000,      5.19981E+03,
    0.330000,      5.32533E+03,
    0.350000,      5.17669E+03,
    0.370000,      4.67851E+03,
    0.390000,      4.00944E+03,
    0.410000,      3.22117E+03,
    0.430000,      2.42359E+03,
    0.450000,      1.72586E+03,
    0.470000,      1.15488E+03,
    0.490000,      7.26082E+02,
    0.510000,      4.25022E+02,
    0.530000,      2.32663E+02,
    0.550000,      1.23549E+02,
    0.570000,      6.38439E+01,
    0.590000,      2.74725E+01,
    0.610000,      1.08648E+01,
    0.630000,      5.22547E+00,
    0.650000,      2.01776E+00,
    0.670000,      5.69111E-01,
    0.690000,      3.10424E-01,
    0.710000,      1.55212E-01,
    0.730000,      0.00000E+00,
    0.750000,      0.00000E+00,
    0.770000,      0.00000E+00,
    0.790000,      0.00000E+00,
    0.810000,      0.00000E+00,
    0.830000,      0.00000E+00,
    0.850000,      0.00000E+00,
    0.870000,      0.00000E+00,
    0.890000,      0.00000E+00,
    0.910000,      0.00000E+00,
    0.930000,      0.00000E+00,
    0.950000,      0.00000E+00,
    0.970000,      0.00000E+00,
    0.990000,      0.00000E+00,
    1.010000,      0.00000E+00,
    1.030000,      0.00000E+00,
    1.050000,      0.00000E+00,
    1.070000,      0.00000E+00,
    1.090000,      0.00000E+00,
    1.110000,      0.00000E+00,
    1.130000,      0.00000E+00,
    1.150000,      0.00000E+00,
    1.170000,      0.00000E+00,
    1.190000,      0.00000E+00,
 
 
#     4
    0.010000,      2.06949E-01,
    0.030000,      4.13899E-01,
    0.050000,      7.76060E-01,
    0.070000,      1.34517E+00,
    0.090000,      4.91505E+00,
    0.110000,      1.22100E+01,
    0.130000,      2.46787E+01,
    0.150000,      5.21513E+01,
    0.170000,      1.02802E+02,
    0.190000,      1.85323E+02,
    0.210000,      3.19582E+02,
    0.230000,      5.20581E+02,
    0.250000,      8.19882E+02,
    0.270000,      1.21262E+03,
    0.290000,      1.70516E+03,
    0.310000,      2.34049E+03,
    0.330000,      2.96046E+03,
    0.350000,      3.59275E+03,
    0.370000,      4.15699E+03,
    0.390000,      4.58026E+03,
    0.410000,      4.76361E+03,
    0.430000,      4.77883E+03,
    0.450000,      4.52278E+03,
    0.470000,      4.05714E+03,
    0.490000,      3.49683E+03,
    0.510000,      2.82269E+03,
    0.530000,      2.17680E+03,
    0.550000,      1.63490E+03,
    0.570000,      1.13269E+03,
    0.590000,      7.65558E+02,
    0.610000,      4.84934E+02,
    0.630000,      2.93506E+02,
    0.650000,      1.70940E+02,
    0.670000,      9.33859E+01,
    0.690000,      4.72880E+01,
    0.710000,      2.20401E+01,
    0.730000,      1.13822E+01,
    0.750000,      5.79459E+00,
    0.770000,      2.53513E+00,
    0.790000,      9.31273E-01,
    0.810000,      4.13899E-01,
    0.830000,      5.17374E-02,
    0.850000,      0.00000E+00,
    0.870000,      0.00000E+00,
    0.890000,      5.17374E-02,
    0.910000,      0.00000E+00,
    0.930000,      0.00000E+00,
    0.950000,      0.00000E+00,
    0.970000,      0.00000E+00,
    0.990000,      0.00000E+00,
    1.010000,      0.00000E+00,
    1.030000,      0.00000E+00,
    1.050000,      0.00000E+00,
    1.070000,      0.00000E+00,
    1.090000,      0.00000E+00,
    1.110000,      0.00000E+00,
    1.130000,      0.00000E+00,
    1.150000,      0.00000E+00,
    1.170000,      0.00000E+00,
    1.190000,      0.00000E+00,
 
 
#     5
    0.010000,      5.17374E-02,
    0.030000,      0.00000E+00,
    0.050000,      0.00000E+00,
    0.070000,      2.06949E-01,
    0.090000,      8.27798E-01,
    0.110000,      9.31273E-01,
    0.130000,      2.79382E+00,
    0.150000,      5.38069E+00,
    0.170000,      1.30896E+01,
    0.190000,      2.75760E+01,
    0.210000,      5.64455E+01,
    0.230000,      9.69041E+01,
    0.250000,      1.72855E+02,
    0.270000,      2.87039E+02,
    0.290000,      4.59014E+02,
    0.310000,      7.11078E+02,
    0.330000,      1.04603E+03,
    0.350000,      1.45284E+03,
    0.370000,      1.94051E+03,
    0.390000,      2.51319E+03,
    0.410000,      3.07786E+03,
    0.430000,      3.59890E+03,
    0.450000,      4.03313E+03,
    0.470000,      4.33782E+03,
    0.490000,      4.47766E+03,
    0.510000,      4.43332E+03,
    0.530000,      4.18193E+03,
    0.550000,      3.75210E+03,
    0.570000,      3.24962E+03,
    0.590000,      2.69629E+03,
    0.610000,      2.16009E+03,
    0.630000,      1.64054E+03,
    0.650000,      1.17930E+03,
    0.670000,      8.26608E+02,
    0.690000,      5.62747E+02,
    0.710000,      3.66714E+02,
    0.730000,      2.25471E+02,
    0.750000,      1.34103E+02,
    0.770000,      7.39844E+01,
    0.790000,      3.83374E+01,
    0.810000,      2.18332E+01,
    0.830000,      1.24170E+01,
    0.850000,      6.10501E+00,
    0.870000,      2.94903E+00,
    0.890000,      1.44865E+00,
    0.910000,      2.58687E-01,
    0.930000,      3.10424E-01,
    0.950000,      5.17374E-02,
    0.970000,      0.00000E+00,
    0.990000,      0.00000E+00,
    1.010000,      0.00000E+00,
    1.030000,      0.00000E+00,
    1.050000,      0.00000E+00,
    1.070000,      0.00000E+00,
    1.090000,      0.00000E+00,
    1.110000,      0.00000E+00,
    1.130000,      0.00000E+00,
    1.150000,      0.00000E+00,
    1.170000,      0.00000E+00,
    1.190000,      0.00000E+00,
 
 
#     6
    0.010000,      0.00000E+00,
    0.030000,      0.00000E+00,
    0.050000,      0.00000E+00,
    0.070000,      0.00000E+00,
    0.090000,      0.00000E+00,
    0.110000,      1.55212E-01,
    0.130000,      2.58687E-01,
    0.150000,      1.24170E+00,
    0.170000,      1.86255E+00,
    0.190000,      5.12200E+00,
    0.210000,      1.17961E+01,
    0.230000,      2.02810E+01,
    0.250000,      4.10795E+01,
    0.270000,      7.33118E+01,
    0.290000,      1.27740E+02,
    0.310000,      2.11968E+02,
    0.330000,      3.46537E+02,
    0.350000,      5.33723E+02,
    0.370000,      7.90185E+02,
    0.390000,      1.12084E+03,
    0.410000,      1.51994E+03,
    0.430000,      2.00224E+03,
    0.450000,      2.51956E+03,
    0.470000,      3.01365E+03,
    0.490000,      3.49838E+03,
    0.510000,      3.87156E+03,
    0.530000,      4.12233E+03,
    0.550000,      4.23672E+03,
    0.570000,      4.17117E+03,
    0.590000,      3.97524E+03,
    0.610000,      3.64935E+03,
    0.630000,      3.19794E+03,
    0.650000,      2.72651E+03,
    0.670000,      2.21172E+03,
    0.690000,      1.76083E+03,
    0.710000,      1.31775E+03,
    0.730000,      9.46225E+02,
    0.750000,      6.64308E+02,
    0.770000,      4.47735E+02,
    0.790000,      2.94644E+02,
    0.810000,      1.84547E+02,
    0.830000,      1.14443E+02,
    0.850000,      6.63790E+01,
    0.870000,      3.91652E+01,
    0.890000,      1.82116E+01,
    0.910000,      1.05544E+01,
    0.930000,      6.51891E+00,
    0.950000,      2.48339E+00,
    0.970000,      1.55212E+00,
    0.990000,      7.24323E-01,
    1.010000,      1.55212E-01,
    1.030000,      5.17374E-02,
    1.050000,      0.00000E+00,
    1.070000,      0.00000E+00,
    1.090000,      0.00000E+00,
    1.110000,      0.00000E+00,
    1.130000,      0.00000E+00,
    1.150000,      0.00000E+00,
    1.170000,      0.00000E+00,
    1.190000,      0.00000E+00,
 
 
#     7
    0.010000,      0.00000E+00,
    0.030000,      0.00000E+00,
    0.050000,      0.00000E+00,
    0.070000,      0.00000E+00,
    0.090000,      1.03475E-01,
    0.110000,      0.00000E+00,
    0.130000,      5.17374E-02,
    0.150000,      3.62162E-01,
    0.170000,      4.13899E-01,
    0.190000,      1.44865E+00,
    0.210000,      3.67335E+00,
    0.230000,      5.63937E+00,
    0.250000,      1.38139E+01,
    0.270000,      2.49891E+01,
    0.290000,      4.68223E+01,
    0.310000,      8.08138E+01,
    0.330000,      1.40829E+02,
    0.350000,      2.35043E+02,
    0.370000,      3.57505E+02,
    0.390000,      5.38276E+02,
    0.410000,      7.75284E+02,
    0.430000,      1.11132E+03,
    0.450000,      1.46950E+03,
    0.470000,      1.91604E+03,
    0.490000,      2.38716E+03,
    0.510000,      2.87173E+03,
    0.530000,      3.31916E+03,
    0.550000,      3.67428E+03,
    0.570000,      3.92350E+03,
    0.590000,      4.08130E+03,
    0.610000,      4.07515E+03,
    0.630000,      3.88144E+03,
    0.650000,      3.61142E+03,
    0.670000,      3.23710E+03,
    0.690000,      2.79413E+03,
    0.710000,      2.34660E+03,
    0.730000,      1.90016E+03,
    0.750000,      1.47089E+03,
    0.770000,      1.11980E+03,
    0.790000,      8.12484E+02,
    0.810000,      5.86391E+02,
    0.830000,      3.88134E+02,
    0.850000,      2.64481E+02,
    0.870000,      1.63904E+02,
    0.890000,      1.05234E+02,
    0.910000,      6.29126E+01,
    0.930000,      3.48710E+01,
    0.950000,      2.09536E+01,
    0.970000,      1.12270E+01,
    0.990000,      5.94980E+00,
    1.010000,      3.67335E+00,
    1.030000,      1.50038E+00,
    1.050000,      7.76060E-01,
    1.070000,      4.13899E-01,
    1.090000,      0.00000E+00,
    1.110000,      0.00000E+00,
    1.130000,      0.00000E+00,
    1.150000,      0.00000E+00,
    1.170000,      0.00000E+00,
    1.190000,      0.00000E+00,
 
 
#     8
    0.010000,      0.00000E+00,
    0.030000,      0.00000E+00,
    0.050000,      0.00000E+00,
    0.070000,      0.00000E+00,
    0.090000,      0.00000E+00,
    0.110000,      0.00000E+00,
    0.130000,      1.55212E-01,
    0.150000,      5.17374E-02,
    0.170000,      1.55212E-01,
    0.190000,      7.24323E-01,
    0.210000,      1.70733E+00,
    0.230000,      2.32818E+00,
    0.250000,      6.51891E+00,
    0.270000,      1.34517E+01,
    0.290000,      2.51961E+01,
    0.310000,      4.83744E+01,
    0.330000,      8.01412E+01,
    0.350000,      1.33689E+02,
    0.370000,      2.24023E+02,
    0.390000,      3.40587E+02,
    0.410000,      5.12924E+02,
    0.430000,      7.37930E+02,
    0.450000,      1.03366E+03,
    0.470000,      1.37156E+03,
    0.490000,      1.77858E+03,
    0.510000,      2.21664E+03,
    0.530000,      2.62319E+03,
    0.550000,      3.09208E+03,
    0.570000,      3.44379E+03,
    0.590000,      3.73021E+03,
    0.610000,      3.88377E+03,
    0.630000,      3.92314E+03,
    0.650000,      3.84455E+03,
    0.670000,      3.64159E+03,
    0.690000,      3.30529E+03,
    0.710000,      2.92890E+03,
    0.730000,      2.52013E+03,
    0.750000,      2.09283E+03,
    0.770000,      1.69906E+03,
    0.790000,      1.32251E+03,
    0.810000,      1.00376E+03,
    0.830000,      7.44294E+02,
    0.850000,      5.25289E+02,
    0.870000,      3.63817E+02,
    0.890000,      2.43942E+02,
    0.910000,      1.57954E+02,
    0.930000,      1.03164E+02,
    0.950000,      6.43095E+01,
    0.970000,      3.94756E+01,
    0.990000,      2.34888E+01,
    1.010000,      1.43313E+01,
    1.030000,      7.13976E+00,
    1.050000,      3.82857E+00,
    1.070000,      1.81081E+00,
    1.090000,      9.83010E-01,
    1.110000,      8.27798E-01,
    1.130000,      4.65636E-01,
    1.150000,      2.06949E-01,
    1.170000,      1.55212E-01,
    1.190000,      0.00000E+00,
 
 
#     9
    0.010000,      0.00000E+00,
    0.030000,      0.00000E+00,
    0.050000,      0.00000E+00,
    0.070000,      0.00000E+00,
    0.090000,      0.00000E+00,
    0.110000,      0.00000E+00,
    0.130000,      5.17374E-02,
    0.150000,      5.17374E-02,
    0.170000,      5.69111E-01,
    0.190000,      1.13822E+00,
    0.210000,      1.55212E+00,
    0.230000,      4.08725E+00,
    0.250000,      6.51891E+00,
    0.270000,      1.26239E+01,
    0.290000,      2.55583E+01,
    0.310000,      4.62532E+01,
    0.330000,      7.83304E+01,
    0.350000,      1.26136E+02,
    0.370000,      2.06277E+02,
    0.390000,      3.07682E+02,
    0.410000,      4.64653E+02,
    0.430000,      6.67257E+02,
    0.450000,      9.16631E+02,
    0.470000,      1.22835E+03,
    0.490000,      1.59698E+03,
    0.510000,      2.00281E+03,
    0.530000,      2.42214E+03,
    0.550000,      2.81503E+03,
    0.570000,      3.15531E+03,
    0.590000,      3.46413E+03,
    0.610000,      3.63745E+03,
    0.630000,      3.77062E+03,
    0.650000,      3.77129E+03,
    0.670000,      3.63745E+03,
    0.690000,      3.38849E+03,
    0.710000,      3.07936E+03,
    0.730000,      2.71642E+03,
    0.750000,      2.31933E+03,
    0.770000,      1.95122E+03,
    0.790000,      1.56593E+03,
    0.810000,      1.23161E+03,
    0.830000,      9.38619E+02,
    0.850000,      7.12010E+02,
    0.870000,      5.12200E+02,
    0.890000,      3.67904E+02,
    0.910000,      2.56773E+02,
    0.930000,      1.71561E+02,
    0.950000,      1.12167E+02,
    0.970000,      7.03628E+01,
    0.990000,      4.61497E+01,
    1.010000,      2.85590E+01,
    1.030000,      1.81598E+01,
    1.050000,      1.03475E+01,
    1.070000,      5.89806E+00,
    1.090000,      3.31119E+00,
    1.110000,      2.32818E+00,
    1.130000,      1.50038E+00,
    1.150000,      5.17374E-01,
    1.170000,      4.65636E-01,
    1.190000,      5.69111E-01,
 
 
#    10
    0.010000,      0.00000E+00,
    0.030000,      0.00000E+00,
    0.050000,      0.00000E+00,
    0.070000,      5.17374E-02,
    0.090000,      0.00000E+00,
    0.110000,      1.03475E-01,
    0.130000,      2.06949E-01,
    0.150000,      3.62162E-01,
    0.170000,      8.79535E-01,
    0.190000,      2.06949E+00,
    0.210000,      3.56988E+00,
    0.230000,      8.12277E+00,
    0.250000,      1.50038E+01,
    0.270000,      2.33853E+01,
    0.290000,      4.55806E+01,
    0.310000,      7.52261E+01,
    0.330000,      1.19462E+02,
    0.350000,      1.90549E+02,
    0.370000,      2.81710E+02,
    0.390000,      4.19228E+02,
    0.410000,      6.02792E+02,
    0.430000,      8.06172E+02,
    0.450000,      1.08172E+03,
    0.470000,      1.40446E+03,
    0.490000,      1.75902E+03,
    0.510000,      2.12170E+03,
    0.530000,      2.50843E+03,
    0.550000,      2.85968E+03,
    0.570000,      3.16659E+03,
    0.590000,      3.38973E+03,
    0.610000,      3.54820E+03,
    0.630000,      3.61825E+03,
    0.650000,      3.52983E+03,
    0.670000,      3.42284E+03,
    0.690000,      3.18526E+03,
    0.710000,      2.87344E+03,
    0.730000,      2.55355E+03,
    0.750000,      2.21374E+03,
    0.770000,      1.85561E+03,
    0.790000,      1.51109E+03,
    0.810000,      1.20620E+03,
    0.830000,      9.42500E+02,
    0.850000,      7.19615E+02,
    0.870000,      5.39414E+02,
    0.890000,      3.98274E+02,
    0.910000,      2.86677E+02,
    0.930000,      1.95567E+02,
    0.950000,      1.35862E+02,
    0.970000,      8.77466E+01,
    0.990000,      6.07914E+01,
    1.010000,      3.88548E+01,
    1.030000,      2.66965E+01,
    1.050000,      1.57799E+01,
    1.070000,      1.02440E+01,
    1.090000,      6.62238E+00,
    1.110000,      4.13899E+00,
    1.130000,      2.12123E+00,
    1.150000,      1.24170E+00,
    1.170000,      1.24170E+00,
    1.190000,      1.44865E+00,
 
 
#    11
    0.010000,      5.17374E-02,
    0.030000,      0.00000E+00,
    0.050000,      1.03475E-01,
    0.070000,      2.06949E-01,
    0.090000,      4.13899E-01,
    0.110000,      7.24323E-01,
    0.130000,      1.08648E+00,
    0.150000,      2.94903E+00,
    0.170000,      5.27721E+00,
    0.190000,      1.05544E+01,
    0.210000,      1.54177E+01,
    0.230000,      2.54548E+01,
