BEHD @ YYE. Sim. done on 2023-10-28   12h45
### Sim. w/ κ =    0.800 ; and ∆_0 =  2.00; T =    2.98E+05
 ## r =  1.00E-06 ; rhosty =  1.05E+03 ; rhosol =  1.00E+03
 ## k =  2.00 ; ∆_eq =  2.00 ; num_particle =      10
#  Time        Position ∆            Position X            Angle Θ
 
 
#    1
    0.10805,        2.0000E+00,
    0.21610,        1.9907E+00,
    0.32415,        1.9715E+00,
    0.43220,        1.9438E+00,
    0.54024,        1.9053E+00,
    0.64829,        1.8622E+00,
    0.75634,        1.8082E+00,
    0.86439,        1.7510E+00,
    0.97244,        1.6838E+00,
    1.08049,        1.6220E+00,
    1.18854,        1.5624E+00,
    1.29659,        1.5107E+00,
    1.40464,        1.4624E+00,
    1.51269,        1.4128E+00,
    1.62073,        1.3662E+00,
    1.72878,        1.3325E+00,
    1.83683,        1.3329E+00,
    1.94488,        1.3459E+00,
    2.05293,        1.3619E+00,
    2.16098,        1.3560E+00,
    2.26903,        1.3391E+00,
    2.37708,        1.3312E+00,
    2.48513,        1.3174E+00,
    2.59318,        1.3325E+00,
    2.70122,        1.3474E+00,
    2.80927,        1.3758E+00,
    2.91732,        1.4186E+00,
    3.02537,        1.4564E+00,
    3.13342,        1.5092E+00,
    3.24147,        1.5500E+00,
    3.34952,        1.5670E+00,
    3.45757,        1.5615E+00,
    3.56562,        1.5603E+00,
    3.67367,        1.5513E+00,
    3.78171,        1.5385E+00,
    3.88976,        1.5407E+00,
    3.99781,        1.5422E+00,
    4.10586,        1.5498E+00,
    4.21391,        1.5751E+00,
    4.32196,        1.5747E+00,
    4.43001,        1.5699E+00,
    4.53806,        1.5486E+00,
    4.64611,        1.5309E+00,
    4.75416,        1.5150E+00,
    4.86220,        1.4939E+00,
    4.97025,        1.4665E+00,
    5.07830,        1.4313E+00,
    5.18635,        1.3877E+00,
    5.29440,        1.3470E+00,
    5.40245,        1.3439E+00,
    5.51050,        1.3505E+00,
    5.61855,        1.3775E+00,
    5.72660,        1.4067E+00,
    5.83465,        1.4611E+00,
    5.94269,        1.5155E+00,
    6.05074,        1.5573E+00,
    6.15879,        1.6081E+00,
    6.26684,        1.6417E+00,
    6.37489,        1.6636E+00,
    6.48294,        1.6733E+00,
    6.59099,        1.6812E+00,
    6.69904,        1.6935E+00,
    6.80709,        1.6956E+00,
    6.91514,        1.6843E+00,
    7.02318,        1.6563E+00,
    7.13123,        1.6228E+00,
    7.23928,        1.5854E+00,
    7.34733,        1.5576E+00,
    7.45538,        1.5319E+00,
    7.56343,        1.4964E+00,
    7.67148,        1.4577E+00,
    7.77953,        1.4156E+00,
    7.88758,        1.3645E+00,
    7.99562,        1.3419E+00,
    8.10367,        1.3225E+00,
    8.21172,        1.3117E+00,
    8.31977,        1.3219E+00,
    8.42782,        1.3272E+00,
    8.53587,        1.3056E+00,
 
 
#    2
    0.10805,        2.0000E+00,
    0.21610,        1.9934E+00,
    0.32415,        1.9744E+00,
    0.43220,        1.9368E+00,
    0.54024,        1.8852E+00,
    0.64829,        1.8175E+00,
    0.75634,        1.7431E+00,
    0.86439,        1.6630E+00,
    0.97244,        1.5840E+00,
    1.08049,        1.4885E+00,
    1.18854,        1.3980E+00,
    1.29659,        1.3079E+00,
    1.40464,        1.2395E+00,
    1.51269,        1.2189E+00,
    1.62073,        1.2197E+00,
    1.72878,        1.2517E+00,
    1.83683,        1.2796E+00,
    1.94488,        1.2575E+00,
    2.05293,        1.2376E+00,
    2.16098,        1.2416E+00,
    2.26903,        1.2911E+00,
    2.37708,        1.3205E+00,
    2.48513,        1.3122E+00,
    2.59318,        1.3220E+00,
    2.70122,        1.3358E+00,
    2.80927,        1.3365E+00,
    2.91732,        1.3435E+00,
    3.02537,        1.3597E+00,
    3.13342,        1.3983E+00,
    3.24147,        1.4440E+00,
    3.34952,        1.4741E+00,
    3.45757,        1.4995E+00,
    3.56562,        1.5475E+00,
    3.67367,        1.5895E+00,
    3.78171,        1.6251E+00,
    3.88976,        1.6482E+00,
    3.99781,        1.6611E+00,
    4.10586,        1.6764E+00,
    4.21391,        1.6852E+00,
    4.32196,        1.6888E+00,
    4.43001,        1.6804E+00,
    4.53806,        1.6650E+00,
    4.64611,        1.6488E+00,
    4.75416,        1.6227E+00,
    4.86220,        1.5720E+00,
    4.97025,        1.5203E+00,
    5.07830,        1.4912E+00,
    5.18635,        1.4599E+00,
    5.29440,        1.4396E+00,
    5.40245,        1.4218E+00,
    5.51050,        1.3920E+00,
    5.61855,        1.3744E+00,
    5.72660,        1.3638E+00,
    5.83465,        1.3615E+00,
    5.94269,        1.3579E+00,
    6.05074,        1.3541E+00,
    6.15879,        1.3520E+00,
    6.26684,        1.3436E+00,
    6.37489,        1.3446E+00,
    6.48294,        1.3300E+00,
    6.59099,        1.3207E+00,
    6.69904,        1.3399E+00,
    6.80709,        1.3821E+00,
    6.91514,        1.4044E+00,
    7.02318,        1.4295E+00,
    7.13123,        1.4354E+00,
    7.23928,        1.4608E+00,
    7.34733,        1.4626E+00,
    7.45538,        1.4883E+00,
    7.56343,        1.5127E+00,
    7.67148,        1.5400E+00,
    7.77953,        1.5523E+00,
    7.88758,        1.5510E+00,
    7.99562,        1.5334E+00,
    8.10367,        1.4967E+00,
    8.21172,        1.4688E+00,
    8.31977,        1.4483E+00,
    8.42782,        1.4506E+00,
    8.53587,        1.4441E+00,
 
 
#    3
    0.10805,        2.0000E+00,
    0.21610,        1.9870E+00,
    0.32415,        1.9591E+00,
    0.43220,        1.9156E+00,
    0.54024,        1.8634E+00,
    0.64829,        1.7990E+00,
    0.75634,        1.7274E+00,
    0.86439,        1.6324E+00,
    0.97244,        1.5251E+00,
    1.08049,        1.4129E+00,
    1.18854,        1.2980E+00,
 
 
#    3
    0.10805,        2.0000E+00,
    0.21610,        1.9882E+00,
    0.32415,        1.9606E+00,
    0.43220,        1.9227E+00,
    0.54024,        1.8779E+00,
    0.64829,        1.8189E+00,
    0.75634,        1.7489E+00,
    0.86439,        1.6782E+00,
    0.97244,        1.6006E+00,
    1.08049,        1.5169E+00,
    1.18854,        1.4334E+00,
    1.29659,        1.3517E+00,
    1.40464,        1.2715E+00,
    1.51269,        1.2044E+00,
    1.62073,        1.2014E+00,
    1.72878,        1.2692E+00,
    1.83683,        1.3347E+00,
    1.94488,        1.3603E+00,
    2.05293,        1.3764E+00,
    2.16098,        1.4046E+00,
    2.26903,        1.4323E+00,
    2.37708,        1.4491E+00,
    2.48513,        1.4885E+00,
    2.59318,        1.5207E+00,
    2.70122,        1.5558E+00,
    2.80927,        1.5854E+00,
    2.91732,        1.5889E+00,
    3.02537,        1.5765E+00,
    3.13342,        1.5746E+00,
    3.24147,        1.5676E+00,
    3.34952,        1.5460E+00,
    3.45757,        1.5135E+00,
    3.56562,        1.4707E+00,
    3.67367,        1.4182E+00,
    3.78171,        1.3595E+00,
    3.88976,        1.3112E+00,
    3.99781,        1.2584E+00,
    4.10586,        1.2247E+00,
    4.21391,        1.1875E+00,
    4.32196,        1.2150E+00,
    4.43001,        1.2658E+00,
    4.53806,        1.3075E+00,
    4.64611,        1.3211E+00,
    4.75416,        1.3176E+00,
    4.86220,        1.3345E+00,
    4.97025,        1.3397E+00,
    5.07830,        1.3474E+00,
    5.18635,        1.3764E+00,
    5.29440,        1.3889E+00,
    5.40245,        1.3980E+00,
    5.51050,        1.4084E+00,
    5.61855,        1.4129E+00,
    5.72660,        1.4172E+00,
    5.83465,        1.4182E+00,
    5.94269,        1.4249E+00,
    6.05074,        1.4284E+00,
    6.15879,        1.4351E+00,
    6.26684,        1.4427E+00,
    6.37489,        1.4465E+00,
    6.48294,        1.4434E+00,
    6.59099,        1.4497E+00,
    6.69904,        1.4464E+00,
    6.80709,        1.4495E+00,
    6.91514,        1.4633E+00,
    7.02318,        1.4741E+00,
    7.13123,        1.4852E+00,
    7.23928,        1.5051E+00,
    7.34733,        1.5178E+00,
    7.45538,        1.5301E+00,
    7.56343,        1.5485E+00,
    7.67148,        1.5643E+00,
    7.77953,        1.5662E+00,
    7.88758,        1.5751E+00,
    7.99562,        1.5986E+00,
    8.10367,        1.6077E+00,
    8.21172,        1.6034E+00,
    8.31977,        1.5980E+00,
    8.42782,        1.5869E+00,
    8.53587,        1.5836E+00,
 
 
#    4
    0.10805,        2.0000E+00,
    0.21610,        1.9932E+00,
    0.32415,        1.9691E+00,
    0.43220,        1.9330E+00,
    0.54024,        1.8769E+00,
    0.64829,        1.8170E+00,
    0.75634,        1.7427E+00,
    0.86439,        1.6656E+00,
    0.97244,        1.6008E+00,
    1.08049,        1.5351E+00,
    1.18854,        1.4538E+00,
    1.29659,        1.3713E+00,
    1.40464,        1.2897E+00,
    1.51269,        1.2175E+00,
    1.62073,        1.1707E+00,
    1.72878,        1.1525E+00,
    1.83683,        1.1041E+00,
 
 
#    4
    0.10805,        2.0000E+00,
    0.21610,        1.9783E+00,
    0.32415,        1.9506E+00,
    0.43220,        1.9029E+00,
    0.54024,        1.8540E+00,
    0.64829,        1.7940E+00,
    0.75634,        1.7283E+00,
    0.86439,        1.6601E+00,
    0.97244,        1.5945E+00,
    1.08049,        1.5316E+00,
    1.18854,        1.4722E+00,
    1.29659,        1.4231E+00,
    1.40464,        1.3937E+00,
    1.51269,        1.3713E+00,
    1.62073,        1.3558E+00,
    1.72878,        1.3476E+00,
    1.83683,        1.3513E+00,
    1.94488,        1.3428E+00,
    2.05293,        1.3412E+00,
    2.16098,        1.3698E+00,
    2.26903,        1.3733E+00,
    2.37708,        1.3659E+00,
    2.48513,        1.3546E+00,
    2.59318,        1.3354E+00,
    2.70122,        1.3101E+00,
    2.80927,        1.2891E+00,
    2.91732,        1.2796E+00,
    3.02537,        1.2655E+00,
    3.13342,        1.2647E+00,
    3.24147,        1.2985E+00,
    3.34952,        1.3336E+00,
    3.45757,        1.3433E+00,
    3.56562,        1.3756E+00,
    3.67367,        1.4139E+00,
    3.78171,        1.4315E+00,
    3.88976,        1.4561E+00,
    3.99781,        1.4783E+00,
    4.10586,        1.5169E+00,
    4.21391,        1.5306E+00,
    4.32196,        1.5315E+00,
    4.43001,        1.5295E+00,
    4.53806,        1.5213E+00,
    4.64611,        1.5103E+00,
    4.75416,        1.4984E+00,
    4.86220,        1.4930E+00,
    4.97025,        1.4734E+00,
    5.07830,        1.4414E+00,
    5.18635,        1.4024E+00,
    5.29440,        1.3804E+00,
    5.40245,        1.3504E+00,
    5.51050,        1.3237E+00,
    5.61855,        1.3102E+00,
    5.72660,        1.2949E+00,
    5.83465,        1.2686E+00,
    5.94269,        1.2494E+00,
    6.05074,        1.2591E+00,
    6.15879,        1.3080E+00,
    6.26684,        1.3787E+00,
    6.37489,        1.4125E+00,
    6.48294,        1.4575E+00,
    6.59099,        1.4899E+00,
    6.69904,        1.5073E+00,
    6.80709,        1.5163E+00,
    6.91514,        1.5171E+00,
    7.02318,        1.5068E+00,
    7.13123,        1.4921E+00,
    7.23928,        1.4568E+00,
    7.34733,        1.4303E+00,
    7.45538,        1.3939E+00,
    7.56343,        1.3754E+00,
    7.67148,        1.3447E+00,
    7.77953,        1.3230E+00,
    7.88758,        1.2934E+00,
    7.99562,        1.2805E+00,
    8.10367,        1.2908E+00,
    8.21172,        1.3041E+00,
    8.31977,        1.3107E+00,
    8.42782,        1.3116E+00,
    8.53587,        1.3440E+00,
 
 
#    5
    0.10805,        2.0000E+00,
    0.21610,        1.9806E+00,
    0.32415,        1.9371E+00,
    0.43220,        1.8824E+00,
    0.54024,        1.8193E+00,
    0.64829,        1.7639E+00,
    0.75634,        1.7069E+00,
    0.86439,        1.6490E+00,
    0.97244,        1.5851E+00,
    1.08049,        1.5325E+00,
    1.18854,        1.4944E+00,
    1.29659,        1.4637E+00,
    1.40464,        1.4326E+00,
    1.51269,        1.4108E+00,
    1.62073,        1.3962E+00,
    1.72878,        1.4002E+00,
    1.83683,        1.4026E+00,
    1.94488,        1.4019E+00,
    2.05293,        1.4054E+00,
    2.16098,        1.3975E+00,
    2.26903,        1.3901E+00,
    2.37708,        1.3754E+00,
    2.48513,        1.3883E+00,
    2.59318,        1.3929E+00,
    2.70122,        1.4008E+00,
    2.80927,        1.3932E+00,
    2.91732,        1.4101E+00,
    3.02537,        1.4235E+00,
    3.13342,        1.4353E+00,
    3.24147,        1.4422E+00,
    3.34952,        1.4363E+00,
    3.45757,        1.4269E+00,
    3.56562,        1.4176E+00,
    3.67367,        1.4204E+00,
    3.78171,        1.4359E+00,
    3.88976,        1.4325E+00,
    3.99781,        1.4497E+00,
    4.10586,        1.4625E+00,
    4.21391,        1.4515E+00,
    4.32196,        1.4507E+00,
    4.43001,        1.4462E+00,
    4.53806,        1.4383E+00,
    4.64611,        1.4346E+00,
    4.75416,        1.4355E+00,
    4.86220,        1.4466E+00,
    4.97025,        1.4600E+00,
    5.07830,        1.4769E+00,
    5.18635,        1.4956E+00,
    5.29440,        1.5105E+00,
    5.40245,        1.5308E+00,
    5.51050,        1.5471E+00,
    5.61855,        1.5556E+00,
    5.72660,        1.5514E+00,
    5.83465,        1.5532E+00,
    5.94269,        1.5654E+00,
    6.05074,        1.5612E+00,
    6.15879,        1.5586E+00,
    6.26684,        1.5432E+00,
    6.37489,        1.5301E+00,
    6.48294,        1.5271E+00,
    6.59099,        1.5144E+00,
    6.69904,        1.5068E+00,
    6.80709,        1.5095E+00,
    6.91514,        1.5326E+00,
    7.02318,        1.5515E+00,
    7.13123,        1.5673E+00,
    7.23928,        1.5775E+00,
    7.34733,        1.5883E+00,
    7.45538,        1.6119E+00,
    7.56343,        1.6248E+00,
    7.67148,        1.6414E+00,
    7.77953,        1.6596E+00,
    7.88758,        1.6848E+00,
    7.99562,        1.7031E+00,
    8.10367,        1.7044E+00,
    8.21172,        1.7068E+00,
    8.31977,        1.7047E+00,
    8.42782,        1.7056E+00,
    8.53587,        1.6958E+00,
